train_loss,epoch,step,val_loss,test_loss,test_acc
0.7044524718075991,0,0,,,
0.6979989444371313,0,1,,,
0.6865441855043173,0,2,,,
0.6593586355447769,0,3,,,
0.67192168161273,0,4,,,
0.7983403168618679,0,5,,,
0.5851876549422741,0,6,,,
0.605593578889966,0,7,,,
0.6735439877957106,0,8,,,
0.7473521195352077,0,9,,,
0.6432676091790199,0,10,,,
0.5825658133253455,0,11,,,
0.5852706753648818,0,12,,,
0.528681259136647,0,13,,,
0.5593458516523242,0,14,,,
0.45870503410696983,0,15,,,
0.4389737397432327,0,16,,,
0.28641393284002936,0,17,,,
,0,17,0.3626080636055239,,
0.3200236391276121,1,18,,,
0.354684348218143,1,19,,,
0.37472073221579194,1,20,,,
0.2087515010498464,1,21,,,
0.5055959017481655,1,22,,,
0.3068953505717218,1,23,,,
0.3445992039050907,1,24,,,
0.11284616310149431,1,25,,,
0.28475193376652896,1,26,,,
0.45769347180612385,1,27,,,
0.28040047246031463,1,28,,,
0.44051296217367053,1,29,,,
0.4280258994549513,1,30,,,
0.31371189816854894,1,31,,,
0.13718209601938725,1,32,,,
0.09432414872571826,1,33,,,
0.06282800785265863,1,34,,,
0.06526396547754605,1,35,,,
,1,35,0.05377340497028443,,
0.22208798094652593,2,36,,,
0.06366280885413289,2,37,,,
0.05003094393759966,2,38,,,
0.04683821403887123,2,39,,,
0.046699737082235515,2,40,,,
0.04344678844790906,2,41,,,
0.04566905682440847,2,42,,,
0.10472883365582675,2,43,,,
0.7511304425424896,2,44,,,
1.3617175176623277,2,45,,,
1.3134329852764495,2,46,,,
2.51320587832015,2,47,,,
2.3441847735084593,2,48,,,
1.517245122580789,2,49,,,
1.3892295022960752,2,50,,,
1.801881166640669,2,51,,,
1.6243786178529263,2,52,,,
0.8383835479617119,2,53,,,
,2,53,0.8725128741033615,,
1.7919772323220968,3,54,,,
1.3028178876265883,3,55,,,
1.1850213259458542,3,56,,,
0.928820863366127,3,57,,,
0.9959064815193415,3,58,,,
0.6246438045054674,3,59,,,
0.706549322232604,3,60,,,
0.798787210136652,3,61,,,
0.747483367100358,3,62,,,
0.6833880338817835,3,63,,,
0.7988814264535904,3,64,,,
0.7075031055137515,3,65,,,
0.681367923039943,3,66,,,
0.6829646578989923,3,67,,,
0.6931092394515872,3,68,,,
0.6860808779019862,3,69,,,
0.6971103060059249,3,70,,,
0.7413932383060455,3,71,,,
,3,71,0.7057737890751131,,
0.6939136842265725,4,72,,,
0.6875696368515491,4,73,,,
0.7105902931652963,4,74,,,
0.710174469742924,4,75,,,
0.7038921895436943,4,76,,,
0.685970124322921,4,77,,,
0.6789175579324365,4,78,,,
0.6790964566171169,4,79,,,
0.6778901554644108,4,80,,,
0.6957824286073446,4,81,,,
0.6855530124157667,4,82,,,
0.6766126118600368,4,83,,,
0.7160050002858043,4,84,,,
0.6958407014608383,4,85,,,
0.6666865982115269,4,86,,,
0.6553188906982541,4,87,,,
0.696264979429543,4,88,,,
0.7250852684179941,4,89,,,
,4,89,0.7162625938653946,,
0.6749566569924355,5,90,,,
0.6964989928528666,5,91,,,
0.6416526027023792,5,92,,,
0.7202625926584005,5,93,,,
0.6855815723538399,5,94,,,
0.7086299555376172,5,95,,,
0.6977270534262061,5,96,,,
0.66172004211694,5,97,,,
0.6739784386008978,5,98,,,
0.7226419392973185,5,99,,,
0.6487792795524001,5,100,,,
0.6728745521977544,5,101,,,
0.7224035346880555,5,102,,,
0.6983338873833418,5,103,,,
0.6595337819308043,5,104,,,
0.7240468617528677,5,105,,,
0.7239129869267344,5,106,,,
0.7307953337828318,5,107,,,
,5,107,0.7187685879968828,,
0.6620723102241755,6,108,,,
0.6504756677895784,6,109,,,
0.7317071184515953,6,110,,,
0.6853058841079473,6,111,,,
0.6967432051897049,6,112,,,
0.6741696828976274,6,113,,,
0.6965217236429453,6,114,,,
0.6963305342942476,6,115,,,
0.6962280785664916,6,116,,,
0.7051590830087662,6,117,,,
0.6851085629314184,6,118,,,
0.6771336710080504,6,119,,,
0.7042843084782362,6,120,,,
0.6953450329601765,6,121,,,
0.6868164027109742,6,122,,,
0.6780339544638991,6,123,,,
0.703044299967587,6,124,,,
0.6724796642859776,6,125,,,
,6,125,0.7089260033061427,,
0.7109424131922424,7,126,,,
0.7020877534523606,7,127,,,
0.6788735343143344,7,128,,,
0.6793986093252897,7,129,,,
0.6728400439023972,7,130,,,
0.7099730465561152,7,131,,,
0.6785579491406679,7,132,,,
0.6781538352370262,7,133,,,
0.6698878537863493,7,134,,,
0.6525839595124125,7,135,,,
0.7036242755129933,7,136,,,
0.6856892965734005,7,137,,,
0.7061604987829924,7,138,,,
0.6739627849310637,7,139,,,
0.6965713920071721,7,140,,,
0.7297642696648836,7,141,,,
0.7068396722897887,7,142,,,
0.7231277922789255,7,143,,,
,7,143,0.7145862824493839,,
0.6634157057851553,8,144,,,
0.7063071439042687,8,145,,,
0.6957743503153324,8,146,,,
0.6658304706215858,8,147,,,
0.6753003234043717,8,148,,,
0.6957123912870884,8,149,,,
0.6944789011031389,8,150,,,
0.7043777294456959,8,151,,,
0.6661700392141938,8,152,,,
0.7221133792772889,8,153,,,
0.6934648081660271,8,154,,,
0.7018711776472628,8,155,,,
0.6854128418490291,8,156,,,
0.6792882452718914,8,157,,,
0.6971612111665308,8,158,,,
0.6922484776005149,8,159,,,
0.6835928354412317,8,160,,,
0.6592783133188883,8,161,,,
,8,161,0.7021142107344442,,
0.6921780658885837,9,162,,,
0.685567514039576,9,163,,,
0.684799624606967,9,164,,,
0.7122118463739753,9,165,,,
0.6934594698250294,9,166,,,
0.6949841855093837,9,167,,,
0.7043861551210284,9,168,,,
0.685022059828043,9,169,,,
0.7020344007760286,9,170,,,
0.6945329438894987,9,171,,,
0.6666581258177757,9,172,,,
0.6762094330042601,9,173,,,
0.6956564849242568,9,174,,,
0.6932530049234629,9,175,,,
0.6577179487794638,9,176,,,
0.674174340441823,9,177,,,
0.6846890356391668,9,178,,,
0.721500039100647,9,179,,,
,9,179,0.7133547442574655,,
0.6617560368031263,10,180,,,
0.6940963193774223,10,181,,,
0.6946385186165571,10,182,,,
0.6619260646402836,10,183,,,
0.704426122829318,10,184,,,
0.6834619734436274,10,185,,,
0.6936898855492473,10,186,,,
0.7288920786231756,10,187,,,
0.7058184817433357,10,188,,,
0.6607477450743318,10,189,,,
0.6856356933712959,10,190,,,
0.7029460035264492,10,191,,,
0.673859603703022,10,192,,,
0.6940186349675059,10,193,,,
0.6827058233320713,10,194,,,
0.6827148320153356,10,195,,,
0.6844158479943871,10,196,,,
0.6680642863114674,10,197,,,
,10,197,0.7090490546918684,,
0.7130127642303705,11,198,,,
0.6917039509862661,11,199,,,
0.6556009305641055,11,200,,,
0.7007386684417725,11,201,,,
0.6623885706067085,11,202,,,
0.6907892823219299,11,203,,,
0.6926345555111766,11,204,,,
0.6897606691345572,11,205,,,
0.6822673445567489,11,206,,,
0.6429282194003463,11,207,,,
0.6681261919438839,11,208,,,
0.6674803039059043,11,209,,,
0.688789957202971,11,210,,,
0.7026870576664805,11,211,,,
0.7570208869874477,11,212,,,
0.6784571129828691,11,213,,,
0.6745193926617503,11,214,,,
0.6613253007332484,11,215,,,
,11,215,0.7006856155010962,,
0.6951647675596178,12,216,,,
0.6623223908245564,12,217,,,
0.694471187889576,12,218,,,
0.6683833175338805,12,219,,,
0.687470099888742,12,220,,,
0.6607459518127143,12,221,,,
0.632609891705215,12,222,,,
0.6831317292526364,12,223,,,
0.712728273589164,12,224,,,
0.6430467959435191,12,225,,,
0.6581240547820926,12,226,,,
0.5959141042549163,12,227,,,
0.6305570968543179,12,228,,,
0.585433863569051,12,229,,,
0.679311279207468,12,230,,,
0.5673628859221935,12,231,,,
0.5340436436235905,12,232,,,
0.5611785451571146,12,233,,,
,12,233,0.637573093896912,,
0.5985906422138214,13,234,,,
0.4882431384176016,13,235,,,
0.7484663724899292,13,236,,,
0.5019376333802938,13,237,,,
0.7425929643213749,13,238,,,
0.7218481954187155,13,239,,,
0.7542925663292408,13,240,,,
0.7852931264787912,13,241,,,
0.6614167019724846,13,242,,,
0.7180029395967722,13,243,,,
0.8245017323642969,13,244,,,
0.835357328876853,13,245,,,
0.6642477251589298,13,246,,,
0.7407151013612747,13,247,,,
0.7313630487769842,13,248,,,
0.6966032264754176,13,249,,,
0.7055484522134066,13,250,,,
0.6773450349768002,13,251,,,
,13,251,0.6835368100193239,,
0.7049618484452367,14,252,,,
0.6956072899047285,14,253,,,
0.6886876428034157,14,254,,,
0.6921295092906803,14,255,,,
0.6899783804547042,14,256,,,
0.6896744999103248,14,257,,,
0.6883389665745199,14,258,,,
0.665844667237252,14,259,,,
0.6886581238359213,14,260,,,
0.7134234756231308,14,261,,,
0.7041763411834836,14,262,,,
0.6624331176280975,14,263,,,
0.6929655550047755,14,264,,,
0.7129141017794609,14,265,,,
0.7501206360757351,14,266,,,
0.6846031984314322,14,267,,,
0.660899356007576,14,268,,,
0.5942891836166382,14,269,,,
,14,269,0.7214873534056448,,
0.6464113518595695,15,270,,,
0.6837034970521927,15,271,,,
0.7008653124794364,15,272,,,
0.7164698205888271,15,273,,,
0.6674665994942188,15,274,,,
0.6498925630003214,15,275,,,
0.7213466707617044,15,276,,,
0.7049464527517557,15,277,,,
0.7043679058551788,15,278,,,
0.7078897040337324,15,279,,,
0.6870345771312714,15,280,,,
0.6840094141662121,15,281,,,
0.7055173479020596,15,282,,,
0.7027464788407087,15,283,,,
0.7393039856106043,15,284,,,
0.6324538979679346,15,285,,,
0.7174158990383148,15,286,,,
0.7374620288610458,15,287,,,
,15,287,0.726408653682278,,
0.6984870135784149,16,288,,,
0.6968418173491955,16,289,,,
0.6989714540541172,16,290,,,
0.7061759456992149,16,291,,,
0.6653848020359874,16,292,,,
0.6735441833734512,16,293,,,
0.6733741536736488,16,294,,,
0.6719501093029976,16,295,,,
0.7086390634067357,16,296,,,
0.675043907482177,16,297,,,
0.7286463906057179,16,298,,,
0.6627137064933777,16,299,,,
0.6797282989136875,16,300,,,
0.7188384751789272,16,301,,,
0.6726227505132556,16,302,,,
0.6997826159931719,16,303,,,
0.6916194264777005,16,304,,,
0.6796670506397883,16,305,,,
,16,305,0.7067101929456957,,
0.6955142426304519,17,306,,,
0.6660108920186758,17,307,,,
0.701801233459264,17,308,,,
0.7019008328206837,17,309,,,
0.6858508149161935,17,310,,,
0.6926800808869302,17,311,,,
0.6936037507839501,17,312,,,
0.6957160332240164,17,313,,,
0.7045204462483525,17,314,,,
0.6890443717129529,17,315,,,
0.6942953951656818,17,316,,,
0.6794050564058125,17,317,,,
0.6799667873419821,17,318,,,
0.7010739645920694,17,319,,,
0.6781977405771613,17,320,,,
0.6786248469725251,17,321,,,
0.6936868573538959,17,322,,,
0.6744695901870728,17,323,,,
,17,323,0.7078414018596372,,
0.6552520338445902,18,324,,,
0.676521360874176,18,325,,,
0.7123424112796783,18,326,,,
0.7247200990095735,18,327,,,
0.6959004597738385,18,328,,,
0.6729756984859705,18,329,,,
0.6755420658737421,18,330,,,
0.6969820559024811,18,331,,,
0.6926226504147053,18,332,,,
0.6944488864392042,18,333,,,
0.6587611064314842,18,334,,,
0.7061997819691896,18,335,,,
0.6964228758588433,18,336,,,
0.7174295410513878,18,337,,,
0.6837060293182731,18,338,,,
0.6819479893893003,18,339,,,
0.6846935790963471,18,340,,,
0.6187569697697957,18,341,,,
,18,341,0.7147473092040708,,
0.6736552445217967,19,342,,,
0.70760159753263,19,343,,,
0.69489736109972,19,344,,,
0.6864477507770061,19,345,,,
0.6411018967628479,19,346,,,
0.727069765329361,19,347,,,
0.6659242529422045,19,348,,,
0.6362565131857991,19,349,,,
0.6832978837192059,19,350,,,
0.7637253347784281,19,351,,,
0.7113043246790767,19,352,,,
0.6500749289989471,19,353,,,
0.6813801433891058,19,354,,,
0.7295884154736996,19,355,,,
0.6976645048707724,19,356,,,
0.7160036526620388,19,357,,,
0.6396997310221195,19,358,,,
0.7267900357643763,19,359,,,
,19,359,0.7171761061876051,,
0.6943882526829839,20,360,,,
0.7039750097319484,20,361,,,
0.7049279697239399,20,362,,,
0.6752257733605802,20,363,,,
0.7100214827805758,20,364,,,
0.7161768591031432,20,365,,,
0.6853913269005716,20,366,,,
0.6845734571106732,20,367,,,
0.6889789383858442,20,368,,,
0.6861641656141728,20,369,,,
0.6855195122770965,20,370,,,
0.6886029758024961,20,371,,,
0.6796709566842765,20,372,,,
0.6819279019255191,20,373,,,
0.6803909493610263,20,374,,,
0.6855675510596484,20,375,,,
0.6940121033694595,20,376,,,
0.7020796537399292,20,377,,,
,20,377,0.698128579364669,,
0.6930555556900799,21,378,,,
0.6735482555814087,21,379,,,
0.6721932301297784,21,380,,,
0.6956926244311035,21,381,,,
0.6978539018891752,21,382,,,
0.6627878327853978,21,383,,,
0.6965894256718457,21,384,,,
0.6990358512848616,21,385,,,
0.7031781347468495,21,386,,,
0.6897232392802835,21,387,,,
0.6773014101199806,21,388,,,
0.698993219062686,21,389,,,
0.6541493823751807,21,390,,,
0.6899424465373158,21,391,,,
0.7105953465215862,21,392,,,
0.6709794322960079,21,393,,,
0.6683571641333401,21,394,,,
0.7196834882100422,21,395,,,
,21,395,0.7009550513279054,,
0.6876549725420773,22,396,,,
0.683988866629079,22,397,,,
0.6922722947783768,22,398,,,
0.6724088017363101,22,399,,,
0.7028076527640224,22,400,,,
0.691418472211808,22,401,,,
0.6783226756379008,22,402,,,
0.677826885599643,22,403,,,
0.6869885139167309,22,404,,,
0.6804669464472681,22,405,,,
0.6808538194745779,22,406,,,
0.6738658808171749,22,407,,,
0.6692449708934873,22,408,,,
0.6753869706299156,22,409,,,
0.6678363622631878,22,410,,,
0.6458346052095294,22,411,,,
0.6533754961565137,22,412,,,
0.6480362415313721,22,413,,,
,22,413,0.6895697962853217,,
,23,414,,0.6822167983109301,0.4545454680919647
