train_loss,epoch,step,val_loss,test_loss,test_acc
0.7148066218942404,0,0,,,
1.300995850469917,0,1,,,
0.6811245828866959,0,2,,,
0.6001599170267582,0,3,,,
0.403729310259223,0,4,,,
2.266472610179335,0,5,,,
0.9488961631432176,0,6,,,
0.9394726976752281,0,7,,,
0.6696366779506207,0,8,,,
0.7827268466353416,0,9,,,
0.6187641099095345,0,10,,,
0.9091370664536953,0,11,,,
1.0335558615624905,0,12,,,
0.8789409436285496,0,13,,,
0.7464388497173786,0,14,,,
0.7980699613690376,0,15,,,
0.6666801748797297,0,16,,,
0.6989180278033018,0,17,,,
0.717718318104744,0,18,,,
0.6853183675557375,0,19,,,
0.754159739241004,0,20,,,
0.66467709466815,0,21,,,
0.6432230193167925,0,22,,,
0.7222371492534876,0,23,,,
0.6667774189263582,0,24,,,
0.7229015836492181,0,25,,,
0.6665255287662148,0,26,,,
0.6836767140775919,0,27,,,
0.6359239853918552,0,28,,,
0.7378320042043924,0,29,,,
0.7023345250636339,0,30,,,
0.6320722736418247,0,31,,,
0.7352266535162926,0,32,,,
0.6648309156298637,0,33,,,
0.7231686438123385,0,34,,,
,0,34,0.7247892224019573,,
0.6343606915324926,1,35,,,
0.7374796476215124,1,36,,,
0.6382781434804201,1,37,,,
0.7336841430515051,1,38,,,
0.7291285172104836,1,39,,,
0.7401155289262533,1,40,,,
0.67903758212924,1,41,,,
0.6688772402703762,1,42,,,
0.7202893402427435,1,43,,,
0.6985152419656515,1,44,,,
0.7053708024322987,1,45,,,
0.6587270814925432,1,46,,,
0.6525080278515816,1,47,,,
0.7422089502215385,1,48,,,
0.7285674922168255,1,49,,,
0.69552231580019,1,50,,,
0.6704819388687611,1,51,,,
0.6510435864329338,1,52,,,
0.6984898205846548,1,53,,,
0.6509866807609797,1,54,,,
0.7177102826535702,1,55,,,
0.7853758558630943,1,56,,,
0.6527623441070318,1,57,,,
0.639610044658184,1,58,,,
0.6499382136389613,1,59,,,
0.6555190328508615,1,60,,,
0.7306934744119644,1,61,,,
0.669936541467905,1,62,,,
0.6736131589859724,1,63,,,
0.6308033987879753,1,64,,,
0.597922682762146,1,65,,,
0.7766555100679398,1,66,,,
0.6450513787567616,1,67,,,
0.6649292260408401,1,68,,,
0.4202922781308492,1,69,,,
,1,69,0.6691677094467224,,
0.5860654506832361,2,70,,,
0.44835861772298813,2,71,,,
0.31357066333293915,2,72,,,
0.3241816982626915,2,73,,,
0.7725896146148443,2,74,,,
0.7717773579061031,2,75,,,
0.7674013897776604,2,76,,,
0.936432396993041,2,77,,,
0.6716545727103949,2,78,,,
0.8116118088364601,2,79,,,
0.6697248108685017,2,80,,,
0.6692422702908516,2,81,,,
0.680726240389049,2,82,,,
0.6855348879471421,2,83,,,
0.607394203543663,2,84,,,
0.7230647876858711,2,85,,,
0.6954151205718517,2,86,,,
0.6821112707257271,2,87,,,
0.6833062767982483,2,88,,,
0.6939168646931648,2,89,,,
0.6893642144277692,2,90,,,
0.6921420488506556,2,91,,,
0.6931698578409851,2,92,,,
0.7361169815994799,2,93,,,
0.6972246118821204,2,94,,,
0.7026471276767552,2,95,,,
0.6714680828154087,2,96,,,
0.6685282690450549,2,97,,,
0.745731808245182,2,98,,,
0.7042235508561134,2,99,,,
0.8022445254027843,2,100,,,
0.7028202228248119,2,101,,,
0.6821157783269882,2,102,,,
0.6589937738608569,2,103,,,
0.6325071752071381,2,104,,,
,2,104,0.8665283437698118,,
0.8257781621068716,3,105,,,
0.6817879416048527,3,106,,,
0.9117796197533607,3,107,,,
0.4486844800412655,3,108,,,
0.5323195531964302,3,109,,,
0.7500880062580109,3,110,,,
0.7762714214622974,3,111,,,
0.7166649214923382,3,112,,,
0.5698977432912216,3,113,,,
0.6301724370568991,3,114,,,
0.6622491357848048,3,115,,,
0.6546779056079686,3,116,,,
0.6998222544789314,3,117,,,
0.6962394416332245,3,118,,,
0.6904322281479836,3,119,,,
0.6556955657433718,3,120,,,
0.640495527535677,3,121,,,
0.7159636281430721,3,122,,,
0.7225895300507545,3,123,,,
0.7275438336655498,3,124,,,
0.639850567560643,3,125,,,
0.6512550907209516,3,126,,,
0.7164348131045699,3,127,,,
0.7469001924619079,3,128,,,
0.6460116603411734,3,129,,,
0.6461440492421389,3,130,,,
0.6415494102984667,3,131,,,
0.6073411852121353,3,132,,,
0.5757698975503445,3,133,,,
0.5346832498908043,3,134,,,
0.5558336023241282,3,135,,,
0.4158530682325363,3,136,,,
0.37407899275422096,3,137,,,
0.4400813356041908,3,138,,,
0.31712428232034046,3,139,,,
,3,139,0.27352687572279283,,
0.5449986346065998,4,140,,,
0.4131635595113039,4,141,,,
0.8219698332250118,4,142,,,
0.8375509511679411,4,143,,,
0.709569042082876,4,144,,,
0.758949538692832,4,145,,,
0.522227056324482,4,146,,,
1.7561357491649687,4,147,,,
1.7068469040095806,4,148,,,
0.7175814816728234,4,149,,,
0.826976116746664,4,150,,,
0.664582185447216,4,151,,,
0.7523037996143103,4,152,,,
0.6174454651772976,4,153,,,
0.9646984040737152,4,154,,,
0.7262590285390615,4,155,,,
0.629122469574213,4,156,,,
0.6590337492525578,4,157,,,
0.7812808267772198,4,158,,,
0.7786531113088131,4,159,,,
0.6938831359148026,4,160,,,
0.7097688987851143,4,161,,,
0.6842989437282085,4,162,,,
0.5748287439346313,4,163,,,
0.6881103031337261,4,164,,,
1.2531525529921055,4,165,,,
0.42927905544638634,4,166,,,
0.5633108336478472,4,167,,,
0.99415148422122,4,168,,,
0.5634296387434006,4,169,,,
0.49319974333047867,4,170,,,
0.8564903363585472,4,171,,,
0.7474595084786415,4,172,,,
0.675344429910183,4,173,,,
0.7530745814243952,4,174,,,
,4,174,0.6948272210936393,,
0.6942266300320625,5,175,,,
0.7175192683935165,5,176,,,
0.672224797308445,5,177,,,
0.70891073346138,5,178,,,
0.7233823463320732,5,179,,,
0.8482643626630306,5,180,,,
0.7106131911277771,5,181,,,
0.7566637322306633,5,182,,,
0.699897013604641,5,183,,,
0.7283780854195356,5,184,,,
0.6608090773224831,5,185,,,
0.6652734912931919,5,186,,,
0.7456652000546455,5,187,,,
0.7361819669604301,5,188,,,
0.8195756077766418,5,189,,,
0.7236380279064178,5,190,,,
0.7512694597244263,5,191,,,
0.7146415673196316,5,192,,,
0.683471355587244,5,193,,,
0.7112400829792023,5,194,,,
0.6699087619781494,5,195,,,
0.7544529251754284,5,196,,,
0.8599827364087105,5,197,,,
0.6566793471574783,5,198,,,
0.8302772045135498,5,199,,,
0.6542538516223431,5,200,,,
0.7743944935500622,5,201,,,
0.6780565492808819,5,202,,,
0.5393885038793087,5,203,,,
0.6628857403993607,5,204,,,
1.0974477119743824,5,205,,,
0.7594331055879593,5,206,,,
0.5728936027735472,5,207,,,
0.740037776529789,5,208,,,
0.666198323170344,5,209,,,
,5,209,0.9452269154210244,,
0.8261483423411846,6,210,,,
0.6701721772551537,6,211,,,
0.7255752421915531,6,212,,,
0.6985849067568779,6,213,,,
0.7276123017072678,6,214,,,
0.6347213573753834,6,215,,,
0.6167457848787308,6,216,,,
0.5841833911836147,6,217,,,
0.45264579728245735,6,218,,,
0.8689840957522392,6,219,,,
1.0887782145291567,6,220,,,
0.7372010964900255,6,221,,,
0.8786165788769722,6,222,,,
0.8262683711946011,6,223,,,
0.7678808942437172,6,224,,,
0.8947483561933041,6,225,,,
0.693986676633358,6,226,,,
0.6046187803149223,6,227,,,
0.9124602861702442,6,228,,,
0.7155546844005585,6,229,,,
0.7482734210789204,6,230,,,
1.3454088103026152,6,231,,,
0.7507906593382359,6,232,,,
0.5650828741490841,6,233,,,
0.4225248731672764,6,234,,,
0.6908477395772934,6,235,,,
0.6785471364855766,6,236,,,
0.7629289850592613,6,237,,,
0.8027263805270195,6,238,,,
0.6297113858163357,6,239,,,
0.6949780769646168,6,240,,,
0.6933638900518417,6,241,,,
0.6733959056437016,6,242,,,
0.7983371391892433,6,243,,,
0.9020652373631795,6,244,,,
,6,244,0.675406071447557,,
0.6476550400257111,7,245,,,
0.6674388572573662,7,246,,,
0.6943601220846176,7,247,,,
0.6837641298770905,7,248,,,
0.6944682039320469,7,249,,,
0.6946905665099621,7,250,,,
0.6946650668978691,7,251,,,
0.7195272669196129,7,252,,,
0.6929703615605831,7,253,,,
0.6954659447073936,7,254,,,
0.7005484066903591,7,255,,,
0.5853674225509167,7,256,,,
0.7843656577169895,7,257,,,
0.7317023649811745,7,258,,,
0.8781884014606476,7,259,,,
0.7196669019758701,7,260,,,
0.6659205704927444,7,261,,,
0.7250307165086269,7,262,,,
0.6935307458043098,7,263,,,
0.718316413462162,7,264,,,
0.7300337739288807,7,265,,,
0.7041835784912109,7,266,,,
0.6892925202846527,7,267,,,
0.6973167359828949,7,268,,,
0.7860160395503044,7,269,,,
0.6651382818818092,7,270,,,
0.5734632052481174,7,271,,,
0.6616808660328388,7,272,,,
0.588884960860014,7,273,,,
0.4868451952934265,7,274,,,
0.791599951684475,7,275,,,
0.688275620341301,7,276,,,
0.9574097841978073,7,277,,,
1.0550722293555737,7,278,,,
0.8938920497894287,7,279,,,
,7,279,0.7738250763185562,,
0.6617911905050278,8,280,,,
0.6992677226662636,8,281,,,
0.7000515647232533,8,282,,,
0.7003052607178688,8,283,,,
0.8587614148855209,8,284,,,
0.7581643126904964,8,285,,,
0.779256708920002,8,286,,,
0.7276638075709343,8,287,,,
0.6808549985289574,8,288,,,
0.7530399821698666,8,289,,,
0.7889008224010468,8,290,,,
0.8049003332853317,8,291,,,
0.6617295630276203,8,292,,,
0.6617623902857304,8,293,,,
0.786903690546751,8,294,,,
0.6628517583012581,8,295,,,
0.706535566598177,8,296,,,
0.6708517037332058,8,297,,,
0.6966853104531765,8,298,,,
0.6947992034256458,8,299,,,
0.6959459707140923,8,300,,,
0.6836451478302479,8,301,,,
0.7250665314495564,8,302,,,
0.7356051243841648,8,303,,,
0.8012436218559742,8,304,,,
0.6635740511119366,8,305,,,
0.7022320330142975,8,306,,,
0.7069290280342102,8,307,,,
0.6786454878747463,8,308,,,
0.7242960594594479,8,309,,,
0.704778254032135,8,310,,,
0.6638656705617905,8,311,,,
0.827570628374815,8,312,,,
0.7625090256333351,8,313,,,
0.8512240548928578,8,314,,,
,8,314,0.6894145117652032,,
0.6933892369270325,9,315,,,
0.7482615858316422,9,316,,,
0.7063121125102043,9,317,,,
0.6102014966309071,9,318,,,
0.8625452071428299,9,319,,,
0.7282122410833836,9,320,,,
0.8491504862904549,9,321,,,
0.6642179526388645,9,322,,,
0.7313122153282166,9,323,,,
0.6831082589924335,9,324,,,
0.6961851976811886,9,325,,,
0.69410340487957,9,326,,,
0.7475662045180798,9,327,,,
0.685282226651907,9,328,,,
0.7016604021191597,9,329,,,
0.6937629729509354,9,330,,,
0.676552303135395,9,331,,,
0.7017527483403683,9,332,,,
0.7492315769195557,9,333,,,
0.6223920919001102,9,334,,,
0.5630936734378338,9,335,,,
0.5956796929240227,9,336,,,
0.5802195705473423,9,337,,,
0.5690433122217655,9,338,,,
0.8121090531349182,9,339,,,
0.5623485147953033,9,340,,,
0.9910498671233654,9,341,,,
0.5623079389333725,9,342,,,
0.9585533663630486,9,343,,,
0.7944573536515236,9,344,,,
0.8490208089351654,9,345,,,
0.6614033132791519,9,346,,,
0.7296369932591915,9,347,,,
0.691676914691925,9,348,,,
0.5526156624158223,9,349,,,
,9,349,0.6736308989986297,,
1.0104808919131756,10,350,,,
0.7877547480165958,10,351,,,
0.6881769821047783,10,352,,,
0.8314478546380997,10,353,,,
1.1428020484745502,10,354,,,
0.6821444854140282,10,355,,,
0.9663625843822956,10,356,,,
0.7287489473819733,10,357,,,
0.7021954879164696,10,358,,,
0.6932164616882801,10,359,,,
0.6986840926110744,10,360,,,
0.7138043157756329,10,361,,,
0.5925123430788517,10,362,,,
0.7565441429615021,10,363,,,
0.6724129356443882,10,364,,,
0.9010669887065887,10,365,,,
0.5676449984312057,10,366,,,
0.8883723206818104,10,367,,,
0.8569039665162563,10,368,,,
0.7350636310875416,10,369,,,
0.7121087945997715,10,370,,,
0.6976165473461151,10,371,,,
0.6933243498206139,10,372,,,
0.7637655772268772,10,373,,,
0.7266767881810665,10,374,,,
0.7247278429567814,10,375,,,
0.6770988740026951,10,376,,,
0.679647222161293,10,377,,,
0.6792892292141914,10,378,,,
0.677349504083395,10,379,,,
0.6978634744882584,10,380,,,
0.7273482568562031,10,381,,,
0.7483784630894661,10,382,,,
0.7069680765271187,10,383,,,
0.7107004622618357,10,384,,,
,10,384,0.695011148529668,,
0.6868442818522453,11,385,,,
0.6695650666952133,11,386,,,
0.6697626672685146,11,387,,,
0.6637938357889652,11,388,,,
0.7888145297765732,11,389,,,
0.803417507559061,11,390,,,
0.8649055883288383,11,391,,,
0.8202704638242722,11,392,,,
0.7534561716020107,11,393,,,
0.687775332480669,11,394,,,
0.7052780762314796,11,395,,,
0.8610392212867737,11,396,,,
0.8202850297093391,11,397,,,
0.7438168451189995,11,398,,,
0.6627850458025932,11,399,,,
0.8073787279427052,11,400,,,
0.8422766700387001,11,401,,,
0.7779865488409996,11,402,,,
0.6879076845943928,11,403,,,
0.6959325186908245,11,404,,,
0.6658935956656933,11,405,,,
0.6617072001099586,11,406,,,
0.5053187720477581,11,407,,,
0.9818206056952477,11,408,,,
0.6769043728709221,11,409,,,
0.6787510253489017,11,410,,,
0.907139927148819,11,411,,,
0.4669547565281391,11,412,,,
0.6710843965411186,11,413,,,
0.9488062784075737,11,414,,,
0.8867079094052315,11,415,,,
0.7102365083992481,11,416,,,
0.6497914791107178,11,417,,,
0.6932032778859138,11,418,,,
0.676362931728363,11,419,,,
,11,419,0.6726753827064268,,
0.7637198939919472,12,420,,,
0.8136097490787506,12,421,,,
0.6721429526805878,12,422,,,
0.6964769251644611,12,423,,,
0.6945710256695747,12,424,,,
0.69411601126194,12,425,,,
0.6931641809642315,12,426,,,
0.6864871270954609,12,427,,,
0.6945827454328537,12,428,,,
0.6740897335112095,12,429,,,
0.7341229431331158,12,430,,,
0.6336782053112984,12,431,,,
0.7068362347781658,12,432,,,
0.756768275052309,12,433,,,
0.7084039971232414,12,434,,,
0.7043943665921688,12,435,,,
0.730266485363245,12,436,,,
0.7125425115227699,12,437,,,
0.6924647875130177,12,438,,,
0.6935054361820221,12,439,,,
0.7068052403628826,12,440,,,
0.6944233551621437,12,441,,,
0.6821002438664436,12,442,,,
0.694931622594595,12,443,,,
0.7288045026361942,12,444,,,
0.7025203071534634,12,445,,,
0.6962595656514168,12,446,,,
0.6938474178314209,12,447,,,
0.6948489025235176,12,448,,,
0.6957829855382442,12,449,,,
0.6963722333312035,12,450,,,
0.6759778968989849,12,451,,,
0.7216642238199711,12,452,,,
0.6544697843492031,12,453,,,
0.6643498440583546,12,454,,,
,12,454,0.732009026312059,,
0.6687174886465073,13,455,,,
0.6241820827126503,13,456,,,
0.7177716307342052,13,457,,,
0.7901854738593102,13,458,,,
0.7889733277261257,13,459,,,
0.7170203849673271,13,460,,,
0.7081234529614449,13,461,,,
0.6102750971913338,13,462,,,
0.7571901232004166,13,463,,,
0.6955121010541916,13,464,,,
0.693353783339262,13,465,,,
0.6982425265014172,13,466,,,
0.7141217924654484,13,467,,,
0.6934341080486774,13,468,,,
0.6916099973022938,13,469,,,
0.691380612552166,13,470,,,
0.6994440779089928,13,471,,,
0.693374652415514,13,472,,,
0.6932913325726986,13,473,,,
0.6932225301861763,13,474,,,
0.6949161663651466,13,475,,,
0.6895761117339134,13,476,,,
0.681845560669899,13,477,,,
0.6976681463420391,13,478,,,
0.766250740736723,13,479,,,
0.700181633234024,13,480,,,
0.6730561628937721,13,481,,,
0.6267406195402145,13,482,,,
0.7019312642514706,13,483,,,
0.7056447304785252,13,484,,,
0.7504651062190533,13,485,,,
0.7050065584480762,13,486,,,
0.7014610320329666,13,487,,,
0.6245797611773014,13,488,,,
0.7371604243914286,13,489,,,
,13,489,0.7198698030364129,,
0.6978854946792126,14,490,,,
0.6769346855580807,14,491,,,
0.7129365131258965,14,492,,,
0.7044537961483002,14,493,,,
0.6931530125439167,14,494,,,
0.6620082072913647,14,495,,,
0.7010431215167046,14,496,,,
0.7115604355931282,14,497,,,
0.7215501591563225,14,498,,,
0.7947602793574333,14,499,,,
0.7256118319928646,14,500,,,
0.7769998423755169,14,501,,,
0.664629653096199,14,502,,,
0.7016487941145897,14,503,,,
0.7373000159859657,14,504,,,
0.6925606429576874,14,505,,,
0.6718177981674671,14,506,,,
0.7701931446790695,14,507,,,
0.6618609167635441,14,508,,,
0.664676945656538,14,509,,,
0.7651116475462914,14,510,,,
0.570972315967083,14,511,,,
0.7806633003056049,14,512,,,
0.7783730737864971,14,513,,,
0.6694815941154957,14,514,,,
0.8407290242612362,14,515,,,
0.5229063481092453,14,516,,,
0.7840196937322617,14,517,,,
0.6640713810920715,14,518,,,
0.7016806751489639,14,519,,,
0.6770937331020832,14,520,,,
0.6938401572406292,14,521,,,
0.6929364278912544,14,522,,,
0.6893953382968903,14,523,,,
0.7401884198188782,14,524,,,
,14,524,0.6924057449063947,,
0.6931573636829853,15,525,,,
0.6937826722860336,15,526,,,
0.6954443231225014,15,527,,,
0.7437261156737804,15,528,,,
0.6771893389523029,15,529,,,
0.6956792399287224,15,530,,,
0.663726482540369,15,531,,,
0.6967247761785984,15,532,,,
0.6733713857829571,15,533,,,
0.7005033604800701,15,534,,,
0.6354443281888962,15,535,,,
0.7498773150146008,15,536,,,
0.6212579533457756,15,537,,,
0.7627895809710026,15,538,,,
0.6634854562580585,15,539,,,
0.7111999690532684,15,540,,,
0.7964745536446571,15,541,,,
0.7586003988981247,15,542,,,
0.6934030391275883,15,543,,,
0.7107898481190205,15,544,,,
0.7003873661160469,15,545,,,
0.7521539814770222,15,546,,,
0.7080587670207024,15,547,,,
0.707515075802803,15,548,,,
0.7055691778659821,15,549,,,
0.6684320792555809,15,550,,,
0.7622067704796791,15,551,,,
0.7304956465959549,15,552,,,
0.6932732909917831,15,553,,,
0.6742404066026211,15,554,,,
0.7079147472977638,15,555,,,
0.719851765781641,15,556,,,
0.5939338430762291,15,557,,,
0.6636120900511742,15,558,,,
0.6364877025286356,15,559,,,
,15,559,0.8614658165362573,,
0.3710598349571228,16,560,,,
0.920568473637104,16,561,,,
0.9348325356841087,16,562,,,
0.914406780153513,16,563,,,
0.9654632806777954,16,564,,,
0.6616710722446442,16,565,,,
0.586643747985363,16,566,,,
0.6734903119504452,16,567,,,
0.6812867186963558,16,568,,,
0.7129556685686111,16,569,,,
0.7319158799946308,16,570,,,
0.6627096906304359,16,571,,,
0.7258000485599041,16,572,,,
0.7310631908476353,16,573,,,
0.8096239939332008,16,574,,,
0.7003068178892136,16,575,,,
0.7118821665644646,16,576,,,
0.7014851458370686,16,577,,,
0.6644511744379997,16,578,,,
0.6054039783775806,16,579,,,
0.6620639860630035,16,580,,,
0.8360465876758099,16,581,,,
0.5778057090938091,16,582,,,
0.5751054473221302,16,583,,,
0.8706756122410297,16,584,,,
0.8602857291698456,16,585,,,
0.8274054676294327,16,586,,,
0.7814862728118896,16,587,,,
0.7015451304614544,16,588,,,
0.6825736202299595,16,589,,,
0.6720730066299438,16,590,,,
0.7019687816500664,16,591,,,
0.8161124736070633,16,592,,,
0.5507905557751656,16,593,,,
0.6389167706171671,16,594,,,
,16,594,0.6715853291173135,,
0.7447577863931656,17,595,,,
0.5783483609557152,17,596,,,
0.9554305002093315,17,597,,,
0.7549458853900433,17,598,,,
0.8172343634068966,17,599,,,
0.7773973159492016,17,600,,,
0.7341146394610405,17,601,,,
0.6860451847314835,17,602,,,
0.6657230816781521,17,603,,,
0.7415291890501976,17,604,,,
0.7678210288286209,17,605,,,
0.7785591892898083,17,606,,,
0.5506571307778358,17,607,,,
0.6616691239178181,17,608,,,
0.661653459072113,17,609,,,
0.6621541455388069,17,610,,,
0.8159408271312714,17,611,,,
0.7331568337976933,17,612,,,
0.8468133360147476,17,613,,,
0.6657288931310177,17,614,,,
0.6741441078484058,17,615,,,
0.6715069152414799,17,616,,,
0.6864387691020966,17,617,,,
0.6865660101175308,17,618,,,
0.7044668681919575,17,619,,,
0.6761281341314316,17,620,,,
0.709875900298357,17,621,,,
0.6950439140200615,17,622,,,
0.680079810321331,17,623,,,
0.7129397615790367,17,624,,,
0.6948286555707455,17,625,,,
0.6941304765641689,17,626,,,
0.6935438849031925,17,627,,,
0.6844131276011467,17,628,,,
0.7402049700419108,17,629,,,
,17,629,0.6950593456145255,,
,18,630,,0.6939375389706005,0.4545454680919647
